# # Artificially distorted spectrum
# # Original: 1.spec
# # Distortion type: extreme
# # Wavelength Flux
4900.000000 2.039370
4900.010381 1.955869
4900.020763 1.870099
4900.031144 1.784634
4900.041525 1.677711
4900.051907 1.562665
4900.062288 1.479583
4900.072670 1.385000
4900.083051 1.306957
4900.093433 1.246820
4900.103814 1.209489
4900.114196 1.187323
4900.124577 1.162555
4900.134959 1.157939
4900.145340 1.196199
4900.155722 1.266740
4900.166104 1.332179
4900.176485 1.418055
4900.186867 1.504315
4900.197249 1.604802
4900.207630 1.698833
4900.218012 1.792676
4900.228394 1.890969
4900.238776 1.943720
4900.249157 2.017925
4900.259539 2.070927
4900.269921 2.154200
4900.280303 2.193887
4900.290685 2.238623
4900.301067 2.257767
4900.311449 2.288244
4900.321831 2.340159
4900.332213 2.358070
4900.342595 2.370942
4900.352977 2.374427
4900.363359 2.399556
4900.373741 2.403547
4900.384123 2.408963
4900.394505 2.443719
4900.404887 2.437572
4900.415269 2.451552
4900.425652 2.444508
4900.436034 2.438073
4900.446416 2.442075
4900.456798 2.440899
4900.467181 2.451699
4900.477563 2.461963
4900.487945 2.457635
4900.498328 2.457694
4900.508710 2.451707
4900.519092 2.456040
4900.529475 2.451761
4900.539857 2.444629
4900.550240 2.445614
4900.560622 2.455209
4900.571005 2.439859
4900.581387 2.431940
4900.591770 2.425408
4900.602152 2.443934
4900.612535 2.425202
4900.622917 2.429331
4900.633300 2.410120
4900.643683 2.434566
4900.654065 2.428055
4900.664448 2.423196
4900.674831 2.410054
4900.685213 2.406418
4900.695596 2.404040
4900.705979 2.412605
4900.716362 2.411444
4900.726745 2.397339
4900.737127 2.399938
4900.747510 2.409110
4900.757893 2.410868
4900.768276 2.403891
4900.778659 2.382320
4900.789042 2.392119
4900.799425 2.399257
4900.809808 2.381773
4900.820191 2.377414
4900.830574 2.372249
4900.840957 2.364605
4900.851340 2.351506
4900.861723 2.346501
4900.872106 2.318548
4900.882490 2.297162
4900.892873 2.311919
4900.903256 2.259472
4900.913639 2.256090
4900.924022 2.227782
4900.934406 2.218022
4900.944789 2.194505
4900.955172 2.180316
4900.965556 2.176158
4900.975939 2.176790
4900.986322 2.203987
4900.996706 2.224277
4901.007089 2.220888
4901.017473 2.243436
4901.027856 2.266263
4901.038240 2.307924
4901.048623 2.334486
4901.059007 2.348286
4901.069390 2.386244
4901.079774 2.388628
4901.090157 2.403817
4901.100541 2.422842
4901.110925 2.428625
4901.121308 2.427667
4901.131692 2.463042
4901.142076 2.467082
4901.152459 2.473128
4901.162843 2.482811
4901.173227 2.479963
4901.183611 2.495389
4901.193994 2.475519
4901.204378 2.480728
4901.214762 2.476434
4901.225146 2.482192
4901.235530 2.480875
4901.245914 2.465202
4901.256298 2.484594
4901.266682 2.487709
4901.277066 2.469502
4901.287450 2.463835
4901.297834 2.471261
4901.308218 2.451522
4901.318602 2.466157
4901.328986 2.444055
4901.339370 2.431489
4901.349754 2.434351
4901.360138 2.422952
4901.370523 2.407461
4901.380907 2.422673
4901.391291 2.396908
4901.401675 2.400431
4901.412060 2.395415
4901.422444 2.405445
4901.432828 2.404282
4901.443213 2.399952
4901.453597 2.414026
4901.463981 2.438332
4901.474366 2.426395
4901.484750 2.422017
4901.495135 2.425450
4901.505519 2.435763
4901.515904 2.422220
4901.526288 2.421637
4901.536673 2.426934
4901.547057 2.394650
4901.557442 2.384630
4901.567826 2.390761
4901.578211 2.399248
4901.588596 2.369595
4901.598980 2.377520
4901.609365 2.372209
4901.619750 2.361648
4901.630135 2.362055
4901.640519 2.363899
4901.650904 2.377689
4901.661289 2.384764
4901.671674 2.402944
4901.682059 2.402088
4901.692443 2.419557
4901.702828 2.411269
4901.713213 2.452510
4901.723598 2.454835
4901.733983 2.449982
4901.744368 2.449374
4901.754753 2.453202
4901.765138 2.449014
4901.775523 2.471010
4901.785908 2.465083
4901.796293 2.456005
4901.806678 2.459500
4901.817064 2.467979
4901.827449 2.466070
4901.837834 2.455595
4901.848219 2.442511
4901.858604 2.419125
4901.868990 2.419665
4901.879375 2.414872
4901.889760 2.396132
4901.900145 2.392682
4901.910531 2.372576
4901.920916 2.341735
4901.931302 2.330768
4901.941687 2.314324
4901.952072 2.270921
4901.962458 2.242589
4901.972843 2.218041
4901.983229 2.191869
4901.993614 2.166482
4902.004000 2.135203
4902.014385 2.127561
4902.024771 2.118448
4902.035157 2.102129
4902.045542 2.079575
4902.055928 2.107321
4902.066313 2.107077
4902.076699 2.130244
4902.087085 2.166452
4902.097471 2.159572
4902.107856 2.178758
4902.118242 2.209506
4902.128628 2.184505
4902.139014 2.182112
4902.149400 2.181074
4902.159785 2.143478
4902.170171 2.135595
4902.180557 2.110020
4902.190943 2.101599
4902.201329 2.070861
4902.211715 2.059303
4902.222101 2.057593
4902.232487 2.033899
4902.242873 2.065752
4902.253259 2.074833
4902.263645 2.094368
4902.274031 2.120741
4902.284417 2.163123
4902.294804 2.214729
4902.305190 2.261055
4902.315576 2.284808
4902.325962 2.314522
4902.336348 2.359512
4902.346735 2.392127
4902.357121 2.387736
4902.367507 2.438816
4902.377894 2.438970
4902.388280 2.447014
4902.398666 2.474697
4902.409053 2.463848
4902.419439 2.472013
4902.429825 2.491229
4902.440212 2.492396
4902.450598 2.514240
4902.460985 2.493864
4902.471371 2.504698
4902.481758 2.487655
4902.492145 2.508375
4902.502531 2.506981
4902.512918 2.501515
4902.523304 2.513171
4902.533691 2.524431
4902.544078 2.504752
4902.554464 2.510523
4902.564851 2.488774
4902.575238 2.510410
4902.585625 2.497731
4902.596011 2.506543
4902.606398 2.498330
4902.616785 2.514941
4902.627172 2.518217
4902.637559 2.494285
4902.647946 2.501081
4902.658333 2.511332
4902.668720 2.517965
4902.679106 2.492754
4902.689493 2.493942
4902.699880 2.506307
4902.710267 2.500776
4902.720655 2.489414
4902.731042 2.516147
4902.741429 2.517307
4902.751816 2.516519
4902.762203 2.514639
4902.772590 2.506914
4902.782977 2.514256
4902.793364 2.493017
4902.803752 2.510961
4902.814139 2.503048
4902.824526 2.492490
4902.834914 2.501790
4902.845301 2.503267
4902.855688 2.511034
4902.866076 2.499498
4902.876463 2.498802
4902.886850 2.499121
4902.897238 2.472125
4902.907625 2.493022
4902.918013 2.489356
4902.928400 2.505060
4902.938788 2.493732
4902.949175 2.499300
4902.959563 2.504826
4902.969950 2.480599
4902.980338 2.487133
4902.990726 2.485150
4903.001113 2.481020
4903.011501 2.485508
4903.021889 2.461977
4903.032276 2.463268
4903.042664 2.427268
4903.053052 2.427362
4903.063440 2.408007
4903.073827 2.379034
4903.084215 2.357181
4903.094603 2.319054
4903.104991 2.317748
4903.115379 2.248362
4903.125767 2.210257
4903.136155 2.163793
4903.146542 2.110464
4903.156930 2.032631
4903.167318 1.960939
4903.177706 1.888422
4903.188095 1.798135
4903.198483 1.719054
4903.208871 1.630705
4903.219259 1.553278
4903.229647 1.434290
4903.240035 1.376746
4903.250423 1.270517
4903.260811 1.220950
4903.271200 1.174343
4903.281588 1.126056
4903.291976 1.099805
4903.302364 1.084210
4903.312753 1.105343
4903.323141 1.124589
4903.333529 1.198354
4903.343918 1.249824
4903.354306 1.339743
4903.364695 1.455324
4903.375083 1.540843
4903.385471 1.659267
4903.395860 1.774477
4903.406248 1.855880
4903.416637 1.953249
4903.427025 2.042094
4903.437414 2.130418
4903.447803 2.188096
4903.458191 2.228577
4903.468580 2.266297
4903.478969 2.324837
4903.489357 2.347529
4903.499746 2.368753
4903.510135 2.402864
4903.520523 2.435163
4903.530912 2.429292
4903.541301 2.446698
4903.551690 2.438837
4903.562079 2.437321
4903.572467 2.462752
4903.582856 2.448471
4903.593245 2.448647
4903.603634 2.440247
4903.614023 2.441270
4903.624412 2.437505
4903.634801 2.427214
4903.645190 2.428743
4903.655579 2.397573
4903.665968 2.412204
4903.676357 2.404342
4903.686746 2.393341
4903.697135 2.403719
4903.707525 2.422269
4903.717914 2.404276
4903.728303 2.407125
4903.738692 2.424815
4903.749081 2.428274
4903.759471 2.440253
4903.769860 2.457691
4903.780249 2.462321
4903.790638 2.459050
4903.801028 2.474360
4903.811417 2.485924
4903.821807 2.472283
4903.832196 2.496137
4903.842585 2.496190
4903.852975 2.499693
4903.863364 2.497054
4903.873754 2.492549
4903.884143 2.500367
4903.894533 2.506569
4903.904922 2.493197
4903.915312 2.515743
4903.925702 2.513320
4903.936091 2.529341
4903.946481 2.501919
4903.956871 2.519496
4903.967260 2.517792
4903.977650 2.505945
4903.988040 2.521745
4903.998429 2.513655
4904.008819 2.506548
4904.019209 2.507294
4904.029599 2.518044
4904.039989 2.523300
4904.050379 2.509703
4904.060768 2.503570
4904.071158 2.495106
4904.081548 2.505847
4904.091938 2.478732
4904.102328 2.479667
4904.112718 2.464705
4904.123108 2.471303
4904.133498 2.443958
4904.143888 2.446329
4904.154278 2.432433
4904.164668 2.431773
4904.175059 2.464645
4904.185449 2.431146
4904.195839 2.432017
4904.206229 2.412828
4904.216619 2.401296
4904.227010 2.382723
4904.237400 2.380332
4904.247790 2.369462
4904.258180 2.345065
4904.268571 2.313515
4904.278961 2.271821
4904.289351 2.227748
4904.299742 2.189869
4904.310132 2.123139
4904.320523 2.063387
4904.330913 1.996327
4904.341304 1.944107
4904.351694 1.838592
4904.362085 1.769995
4904.372475 1.696975
4904.382866 1.621265
4904.393256 1.564725
4904.403647 1.545274
4904.414038 1.510246
4904.424428 1.509000
4904.434819 1.536435
4904.445210 1.565354
4904.455600 1.633565
4904.465991 1.679837
4904.476382 1.766725
4904.486773 1.852276
4904.497164 1.930410
4904.507554 2.019608
4904.517945 2.081130
4904.528336 2.148039
4904.538727 2.205983
4904.549118 2.267581
4904.559509 2.310681
4904.569900 2.354912
4904.580291 2.366981
4904.590682 2.400688
4904.601073 2.426380
4904.611464 2.459008
4904.621855 2.444716
4904.632246 2.471674
4904.642637 2.445719
4904.653028 2.485635
4904.663420 2.477532
4904.673811 2.493077
4904.684202 2.460235
4904.694593 2.475954
4904.704984 2.486930
4904.715376 2.466162
4904.725767 2.473872
4904.736158 2.476292
4904.746550 2.456945
4904.756941 2.451352
4904.767332 2.477576
4904.777724 2.464862
4904.788115 2.469956
4904.798507 2.466260
4904.808898 2.480724
4904.819290 2.500721
4904.829681 2.490630
4904.840073 2.481936
4904.850464 2.505792
4904.860856 2.515956
4904.871247 2.530861
4904.881639 2.502639
4904.892031 2.486523
4904.902422 2.507591
4904.912814 2.492792
4904.923206 2.494488
4904.933598 2.491709
4904.943989 2.496554
4904.954381 2.489511
4904.964773 2.472875
4904.975165 2.478657
4904.985557 2.466269
4904.995948 2.441980
4905.006340 2.436170
4905.016732 2.411635
4905.027124 2.367839
4905.037516 2.353003
4905.047908 2.320207
4905.058300 2.314449
4905.068692 2.273098
4905.079084 2.225896
4905.089476 2.192204
4905.099868 2.146586
4905.110260 2.129601
4905.120653 2.089474
4905.131045 2.075074
4905.141437 2.059065
4905.151829 2.085193
4905.162221 2.096196
4905.172614 2.103649
4905.183006 2.137165
4905.193398 2.167838
4905.203790 2.189501
4905.214183 2.224893
4905.224575 2.247551
4905.234968 2.251014
4905.245360 2.292175
4905.255752 2.287720
4905.266145 2.306109
4905.276537 2.319459
4905.286930 2.322541
4905.297322 2.320865
4905.307715 2.323214
4905.318107 2.318032
4905.328500 2.313553
4905.338893 2.334075
4905.349285 2.324270
4905.359678 2.327240
4905.370070 2.340721
4905.380463 2.368165
4905.390856 2.373133
4905.401249 2.399282
4905.411641 2.412578
4905.422034 2.435784
4905.432427 2.455037
4905.442820 2.470697
4905.453213 2.497579
4905.463605 2.479725
4905.473998 2.489189
4905.484391 2.503827
4905.494784 2.495794
4905.505177 2.497311
4905.515570 2.518148
4905.525963 2.502724
4905.536356 2.521282
4905.546749 2.520620
4905.557142 2.524451
4905.567535 2.530807
4905.577928 2.532941
4905.588321 2.528128
4905.598715 2.534701
4905.609108 2.524222
4905.619501 2.541744
4905.629894 2.531028
4905.640287 2.530359
4905.650681 2.534744
4905.661074 2.530312
4905.671467 2.525522
4905.681861 2.521326
4905.692254 2.538525
4905.702647 2.524127
4905.713041 2.530284
4905.723434 2.548249
4905.733827 2.527721
4905.744221 2.510574
4905.754614 2.526231
4905.765008 2.519078
4905.775401 2.526519
4905.785795 2.541288
4905.796189 2.538455
4905.806582 2.516334
4905.816976 2.518361
4905.827369 2.517525
4905.837763 2.523774
4905.848157 2.521123
4905.858550 2.514572
4905.868944 2.535849
4905.879338 2.538363
4905.889732 2.526631
4905.900125 2.518568
4905.910519 2.534073
4905.920913 2.518047
4905.931307 2.550828
4905.941701 2.531206
4905.952095 2.531445
4905.962489 2.526474
4905.972883 2.530198
4905.983276 2.539463
4905.993670 2.515654
4906.004064 2.528922
4906.014458 2.533658
4906.024853 2.527589
4906.035247 2.539413
4906.045641 2.516200
4906.056035 2.520504
4906.066429 2.514721
4906.076823 2.520735
4906.087217 2.513345
4906.097611 2.520089
4906.108006 2.521816
4906.118400 2.531218
4906.128794 2.533394
4906.139189 2.527477
4906.149583 2.546044
4906.159977 2.528643
4906.170372 2.537715
4906.180766 2.520094
4906.191160 2.537851
4906.201555 2.514841
4906.211949 2.522975
4906.222344 2.525465
4906.232738 2.547916
4906.243133 2.545040
4906.253527 2.546039
4906.263922 2.542969
4906.274316 2.530552
4906.284711 2.524540
4906.295106 2.554699
4906.305500 2.518080
4906.315895 2.527096
4906.326290 2.540372
4906.336684 2.531595
4906.347079 2.556333
4906.357474 2.550466
4906.367869 2.559304
4906.378263 2.548389
4906.388658 2.547959
4906.399053 2.539374
4906.409448 2.541140
4906.419843 2.546399
4906.430238 2.542750
4906.440633 2.532356
4906.451028 2.556711
4906.461422 2.554534
4906.471817 2.540656
4906.482213 2.542876
4906.492608 2.543009
4906.503003 2.533560
4906.513398 2.531008
4906.523793 2.536689
4906.534188 2.537448
4906.544583 2.547354
4906.554978 2.536356
4906.565373 2.523012
4906.575769 2.545746
4906.586164 2.529863
4906.596559 2.537014
4906.606954 2.525699
4906.617350 2.534869
4906.627745 2.516396
4906.638140 2.510150
4906.648536 2.516332
4906.658931 2.516689
4906.669327 2.523291
4906.679722 2.494359
4906.690117 2.509729
4906.700513 2.508136
4906.710908 2.518105
4906.721304 2.537618
4906.731700 2.506417
4906.742095 2.506921
4906.752491 2.488280
4906.762886 2.500189
4906.773282 2.512835
4906.783678 2.516640
4906.794073 2.519734
4906.804469 2.513262
4906.814865 2.522643
4906.825260 2.521017
4906.835656 2.544766
4906.846052 2.523412
4906.856448 2.513527
4906.866844 2.527662
4906.877240 2.511873
4906.887635 2.492748
4906.898031 2.517592
4906.908427 2.509688
4906.918823 2.499586
4906.929219 2.519955
4906.939615 2.489605
4906.950011 2.496860
4906.960407 2.479816
4906.970803 2.462973
4906.981199 2.460186
4906.991595 2.463454
4907.001991 2.443662
4907.012388 2.444246
4907.022784 2.461056
4907.033180 2.454547
4907.043576 2.440111
4907.053972 2.437150
4907.064369 2.429593
4907.074765 2.429137
4907.085161 2.422021
4907.095558 2.397065
4907.105954 2.414968
4907.116350 2.394167
4907.126747 2.396168
4907.137143 2.383719
4907.147539 2.368907
4907.157936 2.383856
4907.168332 2.381777
4907.178729 2.348307
4907.189125 2.349878
4907.199522 2.353839
4907.209919 2.328935
4907.220315 2.319861
4907.230712 2.315474
4907.241108 2.282830
4907.251505 2.248085
4907.261902 2.218637
4907.272298 2.209497
4907.282695 2.184795
4907.293092 2.160471
4907.303489 2.155579
4907.313885 2.147104
4907.324282 2.167144
4907.334679 2.157988
4907.345076 2.171980
4907.355473 2.192274
4907.365870 2.247481
4907.376266 2.273756
4907.386663 2.288414
4907.397060 2.340653
4907.407457 2.363319
4907.417854 2.393541
4907.428251 2.418653
4907.438648 2.426095
4907.449045 2.448461
4907.459443 2.456156
4907.469840 2.456247
4907.480237 2.456171
4907.490634 2.457881
4907.501031 2.471002
4907.511428 2.458786
4907.521826 2.448280
4907.532223 2.425917
4907.542620 2.438381
4907.553017 2.424184
4907.563415 2.402553
4907.573812 2.377646
4907.584209 2.369823
4907.594607 2.310600
4907.605004 2.288908
4907.615402 2.241166
4907.625799 2.204021
4907.636196 2.147402
4907.646594 2.088890
4907.656991 2.045999
4907.667389 1.954200
4907.677787 1.909836
4907.688184 1.869268
4907.698582 1.780476
4907.708979 1.745366
4907.719377 1.728089
4907.729775 1.718326
4907.740172 1.711703
4907.750570 1.761565
4907.760968 1.789101
4907.771365 1.847938
4907.781763 1.877181
4907.792161 1.958325
4907.802559 2.008849
4907.812957 2.081479
4907.823355 2.123945
4907.833752 2.184422
4907.844150 2.235567
4907.854548 2.225398
4907.864946 2.259668
4907.875344 2.266044
4907.885742 2.275223
4907.896140 2.276748
4907.906538 2.279827
4907.916936 2.267412
4907.927334 2.233274
4907.937732 2.252836
4907.948131 2.237419
4907.958529 2.217139
4907.968927 2.196102
4907.979325 2.199324
4907.989723 2.197223
4908.000122 2.235279
4908.010520 2.217135
4908.020918 2.242510
4908.031316 2.259290
4908.041715 2.253258
4908.052113 2.296844
4908.062511 2.324493
4908.072910 2.338127
4908.083308 2.365957
4908.093707 2.396112
4908.104105 2.422092
4908.114504 2.429597
4908.124902 2.443927
4908.135301 2.470323
4908.145699 2.485540
4908.156098 2.502346
4908.166496 2.476393
4908.176895 2.513449
4908.187294 2.514894
4908.197692 2.513733
4908.208091 2.543185
4908.218490 2.536645
4908.228888 2.524076
4908.239287 2.527631
4908.249686 2.545831
4908.260085 2.557133
4908.270483 2.538582
4908.280882 2.544309
4908.291281 2.538606
4908.301680 2.562186
4908.312079 2.541201
4908.322478 2.554660
4908.332877 2.530258
4908.343276 2.560038
4908.353675 2.527742
4908.364074 2.516397
4908.374473 2.529685
4908.384872 2.526363
4908.395271 2.529048
4908.405670 2.503838
4908.416069 2.510269
4908.426468 2.493682
4908.436867 2.495621
4908.447266 2.483171
4908.457666 2.492164
4908.468065 2.486150
4908.478464 2.470044
4908.488863 2.468654
4908.499263 2.470397
4908.509662 2.464376
4908.520061 2.464556
4908.530461 2.461508
4908.540860 2.438750
4908.551259 2.442471
4908.561659 2.420180
4908.572058 2.424457
4908.582458 2.433915
4908.592857 2.426076
4908.603257 2.411101
4908.613656 2.389255
4908.624056 2.433738
4908.634455 2.421811
4908.644855 2.441221
4908.655255 2.449311
4908.665654 2.446942
4908.676054 2.473402
4908.686454 2.465018
4908.696853 2.487169
4908.707253 2.494768
4908.717653 2.496795
4908.728053 2.511589
4908.738452 2.515189
4908.748852 2.508688
4908.759252 2.535283
4908.769652 2.527504
4908.780052 2.511455
4908.790452 2.529209
4908.800852 2.530061
4908.811252 2.528998
4908.821652 2.522836
4908.832052 2.534696
4908.842452 2.533182
4908.852852 2.527419
4908.863252 2.527527
4908.873652 2.519525
4908.884052 2.528207
4908.894452 2.518762
4908.904852 2.517705
4908.915252 2.526202
4908.925653 2.523755
4908.936053 2.521928
4908.946453 2.524475
4908.956853 2.511185
4908.967254 2.524063
4908.977654 2.514925
4908.988054 2.522235
4908.998455 2.506839
4909.008855 2.505677
4909.019255 2.504009
4909.029656 2.504492
4909.040056 2.482694
4909.050457 2.482982
4909.060857 2.455339
4909.071258 2.464145
4909.081658 2.473484
4909.092059 2.445624
4909.102459 2.465767
4909.112860 2.465546
4909.123260 2.460178
4909.133661 2.467655
4909.144062 2.470877
4909.154462 2.458180
4909.164863 2.461557
4909.175264 2.447335
4909.185665 2.459594
4909.196065 2.460821
4909.206466 2.455249
4909.216867 2.427408
4909.227268 2.401543
4909.237669 2.385362
4909.248070 2.345358
4909.258470 2.331794
4909.268871 2.285745
4909.279272 2.227092
4909.289673 2.195523
4909.300074 2.127065
4909.310475 2.073128
4909.320876 2.004773
4909.331277 1.944656
4909.341678 1.903668
4909.352080 1.838236
4909.362481 1.804368
4909.372882 1.791972
4909.383283 1.791923
4909.393684 1.791682
4909.404085 1.829282
4909.414487 1.864981
4909.424888 1.913386
4909.435289 1.970352
4909.445690 2.042699
4909.456092 2.111521
4909.466493 2.177991
4909.476894 2.243899
4909.487296 2.276726
4909.497697 2.328552
4909.508099 2.357233
4909.518500 2.385803
4909.528902 2.437472
4909.539303 2.462049
4909.549705 2.471751
4909.560106 2.492003
4909.570508 2.503516
4909.580909 2.522210
4909.591311 2.528523
4909.601713 2.522288
4909.612114 2.548634
4909.622516 2.559748
4909.632918 2.545927
4909.643319 2.543902
4909.653721 2.556960
4909.664123 2.550120
4909.674525 2.534719
4909.684926 2.561716
4909.695328 2.532969
4909.705730 2.543760
4909.716132 2.535442
4909.726534 2.535201
4909.736936 2.547241
4909.747338 2.530059
4909.757740 2.529666
4909.768142 2.525732
4909.778544 2.510838
4909.788946 2.511904
4909.799348 2.525031
4909.809750 2.503499
4909.820152 2.479573
4909.830554 2.458033
